Date,Close,High,Low,Open,Volume
2023-09-05,122.70809936523438,126.95002327114638,122.50610368767913,126.66145382399552,325300
2023-09-06,121.59231567382812,123.13132830124047,121.39031265265571,122.91971901854386,291100
2023-09-07,120.58232116699219,122.32333668916188,120.370704561035,121.47687760395863,328600
2023-09-08,120.53424835205078,121.84241732915419,120.35149452312415,120.72663045964072,238800
2023-09-11,122.16944122314453,123.05437674267795,121.59230968164995,122.15019934654015,333500
2023-09-12,121.7077407836914,122.43877803875952,120.64004404886371,121.30374940797992,258000
2023-09-13,120.59195709228516,121.76545483171917,120.34186404156085,120.98632753897883,279300
2023-09-14,121.92898559570312,122.44840625475486,121.20756923679127,121.20756923679127,217900
2023-09-15,121.13060760498047,122.35220265507273,120.39957035952995,121.6692627655092,589200
2023-09-18,120.85165405273438,121.54421485235763,120.15909325311112,121.54421485235763,175100
2023-09-19,120.53424835205078,120.89977068715814,119.33188769946509,120.89977068715814,218600
2023-09-20,119.88014221191406,121.2941192581564,119.81281032107518,121.04402623277237,206200
2023-09-21,117.56201171875,119.61083154828877,117.5331562384029,119.5915970075996,335700
2023-09-22,118.00447082519531,118.21608745028,117.45619472321509,117.66781134829976,341200
2023-09-25,119.31263732910156,119.3992037620622,116.84058444889169,117.34076318501396,258800
2023-09-26,118.88941955566406,119.48579307972594,118.53352550013086,118.82208765283667,547000
2023-09-27,118.81246185302734,119.70701843321653,118.1872402117581,119.3126479723948,362400
2023-09-28,120.6881332397461,120.85165249904773,118.56236085294752,119.13949239900526,219300
2023-09-29,120.27452850341797,121.99630964992629,120.03405639924574,121.66926377216642,330900
2023-10-02,120.2841567993164,120.69776913733538,119.26455002499831,119.7839706824147,244100
2023-10-03,118.18724060058594,120.53424350988173,117.82171828016256,119.29340648562564,236300
2023-10-04,119.49540710449219,119.90901943753225,117.66781755527735,118.84132265546667,208200
2023-10-05,119.03369140625,120.16872002997181,118.11990034706665,119.2356870928497,466700
2023-10-06,121.59231567382812,121.86164325055658,118.68740860796868,118.89902522929134,491700
2023-10-09,122.10211944580078,122.3714470315645,120.89975891033677,121.02480176411956,275700
2023-10-10,121.71736145019531,123.70847018445957,121.68850597179858,122.3906804082069,322000
2023-10-11,122.66962432861328,122.83314359247812,121.82316519334888,122.66962432861328,212900
2023-10-12,120.6400375366211,122.54457973715071,120.29375713652479,122.37143953710256,189300
2023-10-13,121.1690902709961,121.84240925638196,120.62081414328858,121.19794575056598,324900
2023-10-16,121.88088989257812,122.57345078072507,121.36146922646793,122.50611887985671,275200
2023-10-17,122.62154388427734,123.44876120681954,121.2075666764976,121.2075666764976,314400
2023-10-18,121.94820404052734,122.80428408635328,121.46725986473184,122.03477780825592,287300
2023-10-19,120.93824768066406,122.61193166216363,120.61120176552791,121.2749071972549,443900
2023-10-20,117.56201171875,121.65965871645427,117.2830631776834,121.13061711466817,446500
2023-10-23,116.86943817138672,118.46617640474612,116.59048966054829,117.08105478916937,379000
2023-10-24,118.6393051147461,119.0529173972163,117.08105069039952,117.4754210963126,312100
2023-10-25,118.09886169433594,119.45964393442463,117.63561213324283,118.15676512830933,431300
2023-10-26,119.12187194824219,121.0134603739244,117.02761412299786,117.02761412299786,576000
2023-10-27,116.94075012207031,119.51755620789429,116.15902425320523,119.16047518784606,364000
2023-10-30,117.90583801269531,118.05060396077593,116.63191092316939,117.66456388692826,283100
2023-10-31,118.00234985351562,118.60071235470951,117.577712385893,118.23397832287583,422900
2023-11-01,118.63931274414062,119.12186099293919,117.36538566183647,117.84793391063505,360500
2023-11-02,119.26663208007812,119.9518497393298,118.68757562918539,119.40174500651636,384300
2023-11-03,120.974853515625,121.57321603943892,120.08696643881918,120.08696643881918,278000
2023-11-06,120.82044219970703,121.34159523213705,120.39579735185238,120.89764432950582,173500
2023-11-07,120.2027816772461,120.62741916445184,119.8360402653971,120.27033814314946,205000
2023-11-08,120.75288391113281,121.10996492498091,120.06766623895945,120.52125543592591,175800
2023-11-09,120.04835510253906,121.30298351927328,119.73952451177246,121.30298351927328,118600
2023-11-10,121.33193969726562,121.3994961613825,119.5658112399359,119.90359356052024,195600
2023-11-13,120.18346405029297,121.10031012853287,120.02905244156845,121.01344761610507,183100
2023-11-14,123.38758850097656,123.39724152783667,120.93624245875796,121.55390364196714,267400
2023-11-15,123.25247955322266,124.30443862184565,122.90504420607215,123.3586407628021,388600
2023-11-16,123.09806823730469,124.13071389102679,122.41284320538445,123.19457641995044,217000
2023-11-17,123.46479034423828,124.57465274515667,123.15595977175767,124.07279846293714,162700
2023-11-20,122.87609100341797,123.1945746283093,122.01715567308845,123.00155090272261,213900
2023-11-21,123.44551086425781,123.8218979529415,122.76028579193338,123.01121297209009,160600
2023-11-22,124.08247375488281,124.69047458350228,122.91470041923974,123.96665215202738,174800
2023-11-24,124.04385375976562,124.46849858209583,123.62886932734556,124.46849858209583,65900
2023-11-27,122.5672607421875,123.82188919108859,122.42249478837549,123.3586396115106,367500
2023-11-28,121.22577667236328,122.57691329757223,121.10996243713889,122.56726027052797,218000
2023-11-29,120.99415588378906,121.98820414200175,120.55985802288006,121.25472870985266,331800
2023-11-30,122.46110534667969,122.69272646591232,120.45370267838986,121.07136390507863,301000
2023-12-01,123.62886810302734,124.05349819494825,122.00749831802362,122.00749831802362,218300
2023-12-04,123.93769073486328,124.38164160429274,122.4610942682931,123.00154595197841,192000
2023-12-05,121.5925064086914,124.19827138588248,121.48634520426313,123.77362656816942,178000
2023-12-06,121.95925903320312,122.85679915866584,121.48635640148973,121.9785577252861,179500
2023-12-07,122.07505798339844,122.67342048254547,121.59250971853534,121.83378385096688,254000
2023-12-08,122.87609100341797,123.04980867489485,121.2354298329936,121.94959920990867,265800
2023-12-11,123.11736297607422,123.22352418250709,121.93029101464404,122.81818541054639,338000
2023-12-12,123.030517578125,123.62888011972512,122.25843735432503,123.19458223267412,210300
2023-12-13,124.10176086425781,124.4878083169758,122.74097856816276,122.74097856816276,425000
2023-12-14,122.95330810546875,125.47220345317041,122.45145375097674,124.57467068526118,412900
2023-12-15,121.5828628540039,124.09211233389199,121.57320982713335,122.72167704235878,713000
2023-12-18,122.61550903320312,122.76992063905433,121.48634057126459,122.28737240572902,240500
2023-12-19,121.82414245605469,123.65782739941075,121.63111872548421,123.25248124676398,659100
2023-12-20,121.18717956542969,122.50936455594228,121.08101835055845,121.62147008946454,346400
2023-12-21,121.51531982421875,121.83379611512954,120.49231239282044,121.83379611512954,421900
2023-12-22,121.86273193359375,122.6058603626526,121.71797334893472,121.98819919110086,312200
2023-12-26,121.43810272216797,122.44180403483686,121.20647424478882,121.73728030157127,274700
2023-12-27,120.90728759765625,122.05575478177946,120.66601347414141,121.71797248147908,283100
2023-12-28,120.83008575439453,121.40914957794178,120.05801292816882,120.61777069727657,343600
2023-12-29,119.30523681640625,120.98450273280184,119.24732601714967,120.82043808829643,313500
2024-01-02,118.59105682373047,119.76847574725994,118.02165341555587,118.33048400507984,313100
2024-01-03,120.98450469970703,122.8181896264616,118.8516421971549,120.78183530676975,531700
2024-01-04,119.88429260253906,121.5249537647008,119.79743008568695,120.8107843913824,353300
2024-01-05,119.86497497558594,120.02904696644276,118.69720916604861,119.45963623768402,423000
2024-01-08,120.00975036621094,120.7914835515639,118.09886338668615,119.73952451966014,352400
2024-01-09,120.27998352050781,120.28963654792885,118.6779270344352,119.39209643843853,250300
2024-01-10,120.82044219970703,121.04241028792013,119.89395037419895,120.11591846241205,279600
2024-01-11,122.41283416748047,122.53830142244865,120.57915674328704,121.00379418819725,323100
2024-01-12,122.01714324951172,123.50339265124161,121.52494200325859,123.42618316886828,231700
2024-01-16,122.38388061523438,122.39353364157216,121.12925962608607,121.48634060646516,257500
2024-01-17,122.26809692382812,122.82784738477424,121.49601665871864,121.54427443645164,336900
2024-01-18,124.63255310058594,125.47218228714773,121.90132842077576,122.87607788237084,444200
2024-01-19,126.23461151123047,126.87157866672356,124.05348423203333,125.18265997413579,418000
2024-01-22,126.61100769042969,127.20936278677414,126.00299220465814,126.33112146870488,266200
2024-01-23,127.22868347167969,127.24798952655084,125.78103860665047,127.19973175247551,217800
2024-01-24,126.21531677246094,127.6726071592471,125.98368831528413,127.50854252440655,294400
2024-01-25,126.66891479492188,127.75947854516052,125.82928555780933,127.42168888189254,332300
2024-01-26,127.10319519042969,127.96213041262492,126.81366332005095,127.0838891387504,219900
2024-01-29,127.63401794433594,127.9621472350077,125.93545332832512,126.47590503677381,187800
2024-01-30,127.63401794433594,128.44469550700896,127.03566279943983,127.42169552655902,228400
2024-01-31,125.73655700683594,128.53435928082044,125.03952535355248,128.14711126677335,537500
2024-02-01,126.33676147460938,126.92730171682662,125.47515503321043,126.29804406272626,298800
2024-02-02,125.94952392578125,126.54006414764015,124.58450254495992,125.81399083086278,344800
2024-02-05,126.48198699951172,127.25646828783212,123.96494127747282,125.01048880090507,319500
2024-02-06,126.9466781616211,127.20805395014796,125.17505729048875,126.31740568420186,369700
2024-02-07,127.59529876708984,128.19551470320488,125.24281332521821,127.21774119888832,393000
2024-02-08,127.90509796142578,130.5383255987766,127.34359937104924,127.4404150760117,620700
2024-02-09,134.52688598632812,134.7689104528772,127.31454506556426,127.89540969408253,650900
2024-02-12,133.21994018554688,135.98870051220734,133.12312449577541,134.72049474500278,491300
2024-02-13,131.59352111816406,132.94886684219074,130.67383120271705,132.32928486812122,275900
2024-02-14,132.7939910888672,133.07474776047272,130.8577952317336,131.9130184285909,335000
2024-02-15,130.73190307617188,133.41353776272464,130.2769107607478,132.7939558437664,471400
2024-02-16,133.11343383789062,133.59748268821022,130.7319069946388,131.05138100848956,453900
2024-02-20,135.23358154296875,135.66922259050702,132.580988302136,132.76492924425213,373000
2024-02-21,135.53370666503906,135.64019802544166,134.5559330991619,134.643058365309,276300
2024-02-22,136.95680236816406,137.87649236016304,135.60147130332354,135.9887045298492,295700
2024-02-23,136.85032653808594,137.5183164858138,136.1145774154304,137.44086687732337,190300
2024-02-26,137.39242553710938,137.52795862593183,136.30816082652976,136.985826270642,199200
2024-02-27,135.83380126953125,137.64413944601768,135.3400767046714,137.39243933350093,244600
2024-02-28,135.9306182861328,136.73414124839545,134.88507086916457,135.19485448974754,189600
2024-02-29,135.97901916503906,137.11169178239248,135.36911284338737,136.1435940131674,250600
2024-03-01,135.81443786621094,136.298486780481,135.10773058753682,135.41752898322991,151400
2024-03-04,137.43116760253906,137.58605202090553,136.07582184483363,136.20167928350625,260300
2024-03-05,137.9733123779297,138.64130227082694,137.21819722213309,137.73128791076408,190200
2024-03-06,138.50576782226562,139.05757592063267,137.93457885855102,138.37021994084103,184000
2024-03-07,140.0353546142578,140.5097279007667,139.25119768276474,139.8901458387967,250100
2024-03-08,138.5251007080078,140.44194485018238,138.40893370739082,140.09342907633237,185200
2024-03-11,138.18629455566406,138.8058765983286,137.45053072424915,138.23468763130884,226700
2024-03-12,137.86680603027344,138.2927714096869,136.9664674288769,138.24436356711726,242200
2024-03-13,136.6566925048828,138.43798895737592,136.4340193693208,138.43798895737592,336800
2024-03-14,136.4340362548828,137.10202620024066,135.88222810784958,136.8503260525416,235200
2024-03-15,136.50181579589844,137.86683749913811,135.2820176535157,135.5724352312238,599500
2024-03-18,134.8173065185547,136.79223448171572,134.49783244298447,136.43402821831805,299700
2024-03-19,135.05934143066406,135.84351318877248,134.4494497592499,134.4494497592499,253000
2024-03-20,135.50466918945312,135.6014848917867,134.70114613049162,135.17551943672254,220000
2024-03-21,136.63731384277344,137.08264530093032,134.8560175541442,135.83379094940284,255800
2024-03-22,137.07298278808594,137.9055476013454,136.55021640394727,137.47958214730536,276000
2024-03-25,138.39926147460938,139.45448448167053,136.66635822183974,136.69539997271303,316300
2024-03-26,138.63157653808594,139.70616548955704,138.0700781445968,138.27338514492806,314200
2024-03-27,140.0450439453125,140.5194024560872,139.0866217188061,139.0866217188061,218200
2024-03-28,139.29959106445312,140.71302034415112,139.06724227584522,140.1999296948087,247800
2024-04-01,137.75064086914062,139.20278768938965,137.58606600215256,139.20278768938965,204400
2024-04-02,136.1436309814453,137.3150213279658,135.91128213581968,137.3150213279658,202600
2024-04-03,136.3856201171875,136.68572806578385,135.40783190427706,136.1823130834933,258700
2024-04-04,137.2278594970703,138.19595727130007,136.47274441493107,137.30530909164867,403600
2024-04-05,137.20851135253906,138.20565100866335,136.45339617162944,136.86968595043953,288300
2024-04-08,136.02743530273438,137.83778848313548,135.91126827776824,137.1504324507475,312500
2024-04-09,135.83380126953125,136.59860681125565,134.91411130502746,135.94029261944223,242600
2024-04-10,134.95285034179688,135.74669776324401,134.0331602299272,134.5462509693493,200700
2024-04-11,134.6914825439453,135.5724405173476,134.03316820746505,134.8173252418579,265300
2024-04-12,132.8230438232422,134.51721533826313,131.6226117466809,133.76210007332836,299200
2024-04-15,133.79110717773438,135.349745158721,133.43291573437705,134.18803080372464,319600
2024-04-16,134.16868591308594,134.94316719612974,132.97792961895718,133.39420463004214,281700
2024-04-17,133.98472595214844,135.03027332023512,133.93633288107014,134.44942351929788,565400
2024-04-18,134.672119140625,134.99159326695258,133.81051247459138,133.97508736900187,246600
2024-04-19,134.89476013183594,135.4562586960129,134.34295200090463,134.62369389699214,276600
2024-04-22,135.84349060058594,136.64699877649178,134.80761886239384,135.09805115725143,298800
2024-04-23,135.6789093017578,136.65669759538656,135.06901769432713,135.31104215956182,417200
2024-04-24,135.94105529785156,136.80518972389316,135.58181289617383,135.88280137491373,559200
2024-04-25,136.10610961914062,137.14502060339382,134.88273282197122,135.7759941871754,694400
2024-04-26,139.1645965576172,144.194050138077,137.7761470024205,137.87324676430742,489500
2024-04-29,142.1259765625,143.7183150448104,140.17438077543662,140.68897697417842,676700
2024-04-30,140.18409729003906,141.85411259899917,139.87338987658373,141.50457416653438,585100
2024-05-01,141.155029296875,142.9318483462627,140.37827561400445,140.77636391358544,359600
2024-05-02,141.67930603027344,142.46576363326017,141.06761019890962,141.52395235638076,356500
2024-05-03,142.54344177246094,142.85414912308485,140.63069223929037,142.8347262098354,303300
2024-05-06,144.70864868164062,144.74749451317692,142.88329461371845,143.46584874866832,260200
2024-05-07,145.368896484375,146.00971937546657,144.00958866873592,144.00958866873592,392900
2024-05-08,146.4077911376953,146.48546798558442,145.13586423611673,145.36889477978409,223500
2024-05-09,144.7474822998047,147.3204628465896,144.3105630316223,146.6116820419674,299100
2024-05-10,144.1746368408203,144.6698100517693,143.78625262261644,144.62126017257594,186300
2024-05-13,143.5726318359375,145.1358429843686,142.59198955369928,144.21345462568132,167500
2024-05-14,143.60179138183594,143.99987970355167,143.18429495809386,143.9901756525385,137600
2024-05-15,142.99978637695312,144.02897856662815,142.5046131956969,143.66003210063693,211100
2024-05-16,143.2522430419922,143.6017814537863,142.17450084023903,143.08718529410942,235500
2024-05-17,143.37844848632812,143.86391760755848,142.85414835414977,143.5532250739488,169500
2024-05-20,143.8639373779297,144.09696792166733,142.7667722722628,143.30079134207162,163400
2024-05-21,144.271728515625,144.35910941304445,142.81532096392596,143.64062450269293,280400
2024-05-22,144.46588134765625,144.50472717038883,143.18425068894993,143.76681950721493,283300
2024-05-23,143.42701721191406,144.62126725880347,143.27166351702041,144.33970165023453,171700
2024-05-24,143.78623962402344,144.50473925123936,143.07745886097342,144.1649049429506,162300
2024-05-28,142.44638061523438,143.48527700970283,141.58224602315815,143.32992330845792,318400
2024-05-29,140.6306915283203,142.43663725250155,140.3102801303625,141.41714913451602,229700
2024-05-30,141.89291381835938,142.7084983843772,140.78604481723752,140.91227152936236,328100
2024-05-31,143.39788818359375,143.5338189608347,141.6793231449918,141.8443808876884,358900
2024-06-03,143.85423278808594,144.18434827896806,142.0288639073479,144.18434827896806,266200
2024-06-04,143.8833465576172,144.07753125118836,142.43664318212836,143.3590315880983,287900
2024-06-05,143.62120056152344,143.89306211733856,142.8056158940781,143.4270158524189,229200
2024-06-06,141.7181396484375,143.7085510142787,141.17440183665215,143.7085510142787,197600
2024-06-07,141.320068359375,142.07739902580767,141.22296860610217,141.53367596430135,179100
2024-06-10,141.35891723632812,141.5725248682501,139.80542469502964,140.62100939036216,125800
2024-06-11,141.27151489257812,141.50454540530546,140.15494183502784,140.6986648827164,147700
2024-06-12,141.59194946289062,142.05799574927036,139.883103202602,141.99003776485912,221300
2024-06-13,141.59194946289062,142.27160338372448,140.8054917248297,141.65020339677005,232400
2024-06-14,140.5433349609375,141.1550309006414,139.50442375003365,140.8734504649213,141500
2024-06-17,142.07740783691406,142.41722736375868,140.3685617068692,140.6598313540665,303800
2024-06-18,142.4269561767578,143.39789457614634,142.2133485436648,142.22305259413477,219900
2024-06-20,141.572509765625,143.24252481049206,141.43657899757036,142.39781323867697,199900
2024-06-21,142.58229064941406,142.86385622851674,141.0870374193948,141.63076047927734,444100
2024-06-24,142.45606994628906,143.92218146002028,142.4075200677485,142.94153910100914,182900
2024-06-25,140.65011596679688,142.53373854866894,140.30057760299235,142.52401968431698,194500
2024-06-26,139.53353881835938,140.58213906374502,138.80533514968837,140.05783894105218,192400
2024-06-27,139.68887329101562,139.69859215477817,138.1353810691403,139.68887329101562,377300
2024-06-28,136.71780395507812,140.12580647860236,136.0187272741163,139.60149156021046,435100
2024-07-01,134.5137939453125,137.36835509564582,134.36815911737452,137.27127014880173,306400
2024-07-02,136.31973266601562,136.41683242305885,133.75645612270853,134.4555328904598,259400
2024-07-03,137.11590576171875,137.2906675416146,136.4848018027494,136.78579030057608,143300
2024-07-05,136.80520629882812,137.32952129947634,135.66921021788147,136.89260200916505,207000
2024-07-08,137.39747619628906,138.35871046567937,137.38777214662196,137.53340696834337,249300
2024-07-09,135.97018432617188,137.16444902591755,135.68861875591176,136.766360792669,238400
2024-07-10,137.18386840820312,137.51399869592782,136.48480644947725,136.65956823532298,142000
2024-07-11,137.96063232421875,139.13547429525167,136.65957843687883,137.09649774945188,244500
2024-07-12,140.38795471191406,141.26180800557879,139.24225471520856,139.24225471520856,263900
2024-07-15,139.2616729736328,141.45600300897715,138.98010738595784,140.55302268784044,319900
2024-07-16,140.3588104248047,141.07730995774932,139.66945266519244,139.66945266519244,178800
2024-07-17,140.65011596679688,141.53367333298914,140.145223926781,140.145223926781,242300
2024-07-18,142.0288543701172,142.97066571318356,140.3976851256369,140.40738917518402,434200
2024-07-19,141.69876098632812,142.32986505813662,140.45596094483025,142.32986505813662,251200
2024-07-22,142.91238403320312,143.2716263961412,141.02876171284905,141.74726125406514,235700
2024-07-23,141.7958221435547,144.19404091845544,141.43657971516106,143.572641002004,234500
2024-07-24,139.95106506347656,142.36870709384863,139.71803450615988,141.82498394212112,250600
2024-07-25,137.80828857421875,140.30167233708127,137.54531009340042,139.1134168154453,558100
2024-07-26,142.84375,147.35326223129871,138.64590329069,139.40560564885226,562800
2024-07-29,143.9541015625,144.4897929937424,141.39253199421196,142.76584597383152,390900
2024-07-30,141.95745849609375,144.05150768530154,141.62630915801532,143.54504923709058,411000
2024-07-31,143.1554412841797,144.97679227316166,141.62630185383244,142.68793548619507,280600
2024-08-01,143.20413208007812,145.64881403519908,141.64575972559882,143.05804117385702,335300
2024-08-02,141.8990020751953,143.17491218000953,140.00948044813856,142.76584278576115,213500
2024-08-05,137.01937866210938,139.69782130454826,135.85060666321178,139.69782130454826,448500
2024-08-06,141.15878295898438,142.28860227483594,137.43819054803106,137.65246713764915,476000
2024-08-07,139.86338806152344,143.42813984840885,139.73676603783363,142.21066611828329,353600
2024-08-08,141.77236938476562,142.35676268215138,140.7010014885436,140.7010014885436,268600
2024-08-09,140.20428466796875,141.62630065454624,139.73677887394297,141.62630065454624,263200
2024-08-12,139.56146240234375,140.42830322987103,139.05500395736158,140.22377593602033,221100
2024-08-13,140.61334228515625,141.5191504756012,139.37639966606926,139.77571975776996,212000
2024-08-14,140.15557861328125,141.04190311093822,139.75625849980418,140.37960449405662,115700
2024-08-15,143.18467712402344,143.5060920440662,141.2269842783919,141.2269842783919,277500
2024-08-16,142.90220642089844,143.01907915033655,141.8210890883735,142.30807861002003,250600
2024-08-19,143.1456756591797,143.8858942498765,142.1229948737154,142.51259533861224,191200
2024-08-20,144.25599670410156,144.45078948640906,143.15539593454605,143.15539593454605,387200
2024-08-21,145.44427490234375,145.67803519496948,143.62293906523604,144.3144557805946,267300
2024-08-22,145.11314392089844,146.48644308563473,144.8014634914536,145.67805355296156,200400
2024-08-23,146.525390625,146.6130451606969,145.5514117081752,145.76568825881577,221400
2024-08-26,146.25270080566406,148.6973829226023,146.23321706296485,146.75915922191393,235500
2024-08-27,147.265625,147.59677430031587,145.94101293699603,146.10658758715397,208300
2024-08-28,147.59678649902344,148.01560524076524,147.00265865265132,147.00265865265132,249000
2024-08-29,148.31752014160156,148.9311316640923,147.27537034525355,148.58049863148904,187100
2024-08-30,149.203857421875,149.447352191514,147.6941868777649,148.23961278387767,178500
2024-09-03,146.13580322265625,148.41492538696468,145.83387210929124,148.15194689459446,362400
2024-09-04,146.807861328125,146.97343598691867,145.7072750829975,145.7072750829975,175800
2024-09-05,146.79811096191406,147.8110425475091,146.0481429967178,147.14874398418533,200600
2024-09-06,148.41494750976562,149.1356825686532,146.4669892113799,146.4669892113799,319100
2024-09-09,147.95716857910156,149.07723859888472,147.49939721337483,148.599998351621,241500
2024-09-10,147.5675506591797,148.8142425709734,147.4993798583381,147.9181836882304,158100
2024-09-11,146.91500854492188,146.95397603273526,144.76252298810905,146.8663066160262,178000
2024-09-12,148.00587463378906,148.05456170073086,146.06765082141203,146.9637098345748,200400
2024-09-13,148.31752014160156,149.02852064652984,147.9474033678148,148.22986559888577,138600
2024-09-16,149.00904846191406,149.18435754345714,148.11298958996787,149.05773552118288,182900
2024-09-17,149.0480194091797,151.52193462791402,147.91820009450953,149.99278031830573,259900
2024-09-18,149.0869903564453,151.44401803275537,148.73635728036453,149.75902346233676,214200
2024-09-19,152.81727600097656,154.6775791759277,150.98620586439702,150.98620586439702,412400
2024-09-20,151.8530731201172,152.2426587848195,150.4602753884125,152.2426587848195,663300
2024-09-23,151.9017791748047,152.82705629994214,150.71352354488388,152.1063064527266,315800
2024-09-24,152.5543212890625,152.99260882581254,151.96992799890327,152.1160188905737,246200
2024-09-25,153.0510711669922,153.76207173006424,151.81411358113382,153.2069113857245,284100
2024-09-26,154.25881958007812,154.92111825576467,153.59650604264948,153.8302663844023,371600
2024-09-27,155.72950744628906,157.34631621260434,154.14191686210978,154.5509862737545,354300
2024-09-30,156.02171325683594,156.2457242868971,154.7944900883672,155.14512315625234,289800
2024-10-01,155.8074188232422,156.3625791144633,154.91135994387946,156.3625791144633,192200
2024-10-02,154.61917114257812,155.94378321896212,153.84973424739667,155.70028846125726,186900
2024-10-03,154.80422973632812,156.2846820263738,152.564074990201,153.8789526282023,367000
2024-10-04,156.40155029296875,157.26839101232096,155.18407653760102,155.77820432469008,350500
2024-10-07,154.5607452392578,155.48602240881075,153.89843172537022,155.2425276346262,223300
2024-10-08,154.541259765625,154.88215839036292,153.0121203289736,154.16140851662,205900
2024-10-09,155.54446411132812,155.88536275157466,154.00557530229472,154.2296012026817,152600
2024-10-10,155.07696533203125,155.23280556674862,153.93741148142823,153.93741148142823,168500
2024-10-11,157.34632873535156,157.70669625153667,156.1775567716702,156.75220088173344,194400
2024-10-14,162.8395538330078,163.394714143239,159.20661626974442,160.6968029731812,469700
2024-10-15,164.29078674316406,165.24529695748606,162.15778500726063,162.9661894401701,397300
2024-10-16,161.71946716308594,164.79724438022347,161.6025944384509,164.31025487859057,330000
2024-10-17,163.52134704589844,163.94016577814568,162.18700046287847,162.63502251682706,238200
2024-10-18,164.24209594726562,164.69986730082573,163.414207789957,164.69986730082573,171500
2024-10-21,162.00193786621094,164.1057361900711,161.97271968352462,164.0862524476999,217900
2024-10-22,161.49546813964844,162.0408940440798,160.52148906409494,161.40781358966652,228500
2024-10-23,163.28758239746094,163.6089972685699,161.83636311905678,162.17724687078498,318100
2024-10-24,162.65280151367188,164.3911490539813,162.26215240803288,164.38138841449273,547300
2024-10-25,164.9575958251953,165.87560268945643,160.75821064918227,164.96735646567467,518900
2024-10-28,165.1431427001953,167.3990873642211,164.8110872205768,165.92441114185215,350000
2024-10-29,164.7524871826172,165.52400985615543,163.71729312603756,165.0747671080742,338100
2024-10-30,165.0747833251953,166.2174041358462,164.18607328299754,164.4107021299758,290300
2024-10-31,163.98098754882812,166.29552588082868,163.9321545452615,165.1333689439496,329900
2024-11-01,165.4458770751953,166.98890749293048,163.69775401702358,164.16653293752452,316300
2024-11-04,164.3227996826172,166.57875942258767,164.24466985207027,165.6607525408384,191800
2024-11-05,166.32481384277344,166.37364684373878,163.81495853194275,163.81495853194275,206200
2024-11-06,169.10813903808594,171.05156441416634,168.1120023975292,171.05156441416634,264100
2024-11-07,170.62185668945312,171.35430696476374,169.47922114643825,170.12378096512896,412300
2024-11-08,171.6472930908203,173.6786238548333,170.40702122427004,170.61209897781401,309200
2024-11-11,172.02818298339844,173.8641968079587,171.78403284297252,172.19421819242098,189100
2024-11-12,171.58868408203125,173.09265701480297,170.85623379576612,172.51645146428592,179800
2024-11-13,171.3933563232422,172.26253001280048,170.95388915917127,171.3933563232422,168400
2024-11-14,170.026123046875,171.67656508355398,169.84056660029717,171.05154146977196,198200
2024-11-15,162.59420776367188,169.69408202115162,162.28168847937133,168.92257425336157,620500
2024-11-18,162.78952026367188,163.89308346527008,160.4847427631967,162.4965371683572,384400
2024-11-19,162.99461364746094,163.74660018722383,162.31099629392224,162.52584959099735,287600
2024-11-20,164.78176879882812,164.98686142400987,161.77383800717232,163.0922544076903,221800
2024-11-21,165.90487670898438,166.24667789967594,163.81495249958823,164.74271987680694,205100
2024-11-22,167.49671936035156,168.04362806955587,166.19783911675128,166.19783911675128,241600
2024-11-25,168.46356201171875,169.94799873062775,167.7213511031337,168.02409483029683,270100
2024-11-26,168.01434326171875,168.81516282359394,167.15494495593342,168.81516282359394,140300
2024-11-27,167.7115936279297,169.81129356804752,167.50651587532045,168.6296004490124,167200
2024-11-29,168.91281127929688,169.43040829774364,168.06315880043525,168.55145899910121,117300
2024-12-02,168.71746826171875,169.0592843391612,166.8423974094864,168.9323215272417,170900
2024-12-03,168.36590576171875,169.39133917889114,167.0865616010066,169.39133917889114,160100
2024-12-04,168.55145263671875,168.84443572520686,167.02795845866723,167.86783536473908,173400
2024-12-05,167.09634399414062,168.40498502885572,166.5396745813458,167.98503908384095,245000
2024-12-06,167.14517211914062,168.6100728910936,166.85220388614303,167.5846542721195,209200
2024-12-09,166.79356384277344,169.41086047668688,166.24667004212424,167.5455502695353,301700
2024-12-10,166.91075134277344,167.35997911021374,164.2543974859309,166.72519491206398,287000
2024-12-11,168.27801513671875,170.02613822467129,167.73112128855698,167.85808411107303,418600
2024-12-12,167.62367248535156,168.56121531663356,166.78379564336024,167.65296930179122,178300
2024-12-13,166.21739196777344,166.99867530040407,165.8462939336225,166.9107848371899,153200
2024-12-16,163.70753479003906,166.9303042864774,163.66846242787886,166.158796503823,236100
2024-12-17,159.2737579345703,163.0043786686916,159.02960783108298,162.9946031274387,511900
2024-12-18,154.5079345703125,160.57261387443967,154.21495151029833,159.8596998530706,468600
2024-12-19,155.15249633789062,157.78932926379758,154.52747269585277,154.80091960788565,404700
2024-12-20,154.47865295410156,156.04121964416362,153.78527497542004,155.00602554523715,730200
2024-12-23,154.8107147216797,155.1818127767919,153.28722033295332,153.49229809203675,194900
2024-12-24,155.6212615966797,155.68961586782322,154.22471543824068,155.0645922806042,100500
2024-12-26,155.1329803466797,155.89472747069453,154.71303442348506,154.71303442348506,164500
2024-12-27,154.44935607910156,155.84590247939389,153.92199838988887,154.1270910423129,145000
2024-12-30,153.0625762939453,153.80480213396478,151.3730617769222,153.32626257404377,221700
2024-12-31,153.42393493652344,154.54701948074276,152.52544941905987,153.59971586271843,317100
2025-01-02,150.552734375,154.4103033111957,149.85934147374135,153.96106053123728,239400
2025-01-03,151.86135864257812,152.07621191768425,149.29289488218893,150.43551553521377,250700
2025-01-06,149.3417205810547,151.0214743397327,147.89635626605445,150.39645072499704,369000
2025-01-07,149.8397674560547,152.40823085213694,149.02920237154262,152.271507414802,361200
2025-01-08,150.54295349121094,150.6503801368408,148.5311589473614,149.3124422881475,228600
2025-01-10,149.8593292236328,150.6894455288929,149.00969163951783,149.14641510020002,350800
2025-01-13,150.2890167236328,151.08006056736804,149.3514738966303,149.3514738966303,349300
2025-01-14,150.9921875,151.81252825447513,149.8886242863141,151.18750459843608,196900
2025-01-15,151.91995239257812,153.24812950251066,150.5624784634495,152.4668462198905,206100
2025-01-16,152.7500762939453,153.49228725350105,151.67580986403843,152.24223989964935,346300
2025-01-17,152.43756103515625,154.25403847264764,152.03715127326387,153.29697420180517,231900
2025-01-21,156.09005737304688,156.5099884289423,153.05282926731795,153.05282926731795,270900
2025-01-22,155.34783935546875,156.98852094407073,154.6349103040437,155.6115107453754,280000
2025-01-23,155.88494873046875,156.070505187951,154.03917459835165,154.7521036088612,149800
2025-01-24,154.59585571289062,156.7150769217103,153.54112542846482,155.9142573921176,329600
2025-01-27,154.7521209716797,155.20134885433862,152.98446155852756,154.54702831099388,317000
2025-01-28,154.71304321289062,156.59788985115384,153.88294176224863,153.88294176224863,204300
2025-01-29,153.43368530273438,155.10367849846844,152.95514575501196,155.0646061385479,265800
2025-01-30,154.4298095703125,154.96692781170574,152.9160761312112,154.12706586283983,274200
2025-01-31,153.47274780273438,155.66033807623802,153.0918742405619,154.205198107046,834100
2025-02-03,152.33013916015625,153.08212570452554,150.53319784792123,150.9629044447037,364600
2025-02-04,154.00987243652344,154.7520982407055,152.43754527468874,152.43754527468874,302400
2025-02-05,155.05784606933594,156.3702319730873,154.52896432375118,155.01866189479728,262600
2025-02-06,153.2263641357422,156.54651300778121,152.16861560867,156.54651300778121,446600
2025-02-07,140.2297821044922,154.64647905482116,139.11327229734582,154.37224962460155,1221500
2025-02-10,140.32769775390625,141.62050617381166,137.99673314828405,141.28750055559425,621900
2025-02-11,139.35812377929688,140.1220657147679,137.3699528993658,139.33854663703144,377300
2025-02-12,138.78028869628906,140.53341437012955,137.04675510972507,138.06533442672804,423500
2025-02-13,139.82823181152344,140.81741540614397,138.54522672072014,139.80863972660936,665900
2025-02-14,141.80662536621094,142.31591505799216,139.7792850599418,140.72929960574803,512800
2025-02-18,143.87313842773438,144.2551019301506,140.93495304164546,141.80661410840983,489600
2025-02-19,144.01025390625,144.45099367199094,142.6097260381441,143.12880426353559,331000
2025-02-20,143.6576690673828,144.3824268363581,142.91333415595835,143.94170202111488,283100
2025-02-21,143.3246612548828,144.3530289976447,142.2081515484395,144.00044619853725,451900
2025-02-24,142.60971069335938,144.25508716788633,141.3854669077713,143.1679580885088,353300
2025-02-25,144.6664581298828,145.27367831527678,142.7174564829414,142.8741632870377,336700
2025-02-26,143.6185302734375,146.10618783056475,143.59893818245286,143.62831884673648,735600
2025-02-27,142.62930297851562,144.14735331926948,142.3648621360305,143.21693102979327,262800
2025-02-28,143.72622680664062,143.9221028321513,141.64991403633834,143.14838730085012,348700
2025-03-03,143.56951904296875,145.7731579400057,142.68806946190705,143.94169395000412,394100
2025-03-04,142.9329071044922,144.9014856526628,142.1493881243132,142.54114014221193,490100
2025-03-05,145.3814239501953,145.78297956351986,143.0406700510276,143.0406700510276,445100
2025-03-06,148.0355682373047,148.37836251128888,144.02984573371802,144.5195432997619,471700
2025-03-07,149.6320037841797,150.20005481751275,146.1061749374176,147.408772401794,480200
2025-03-10,147.46754455566406,150.8268629666157,147.1443423416951,148.93663737676746,391100
2025-03-11,144.84274291992188,147.45772608292995,144.23552273099082,147.24225796213827,304000
2025-03-12,143.0210723876953,145.18554224213253,142.56075547219578,145.18554224213253,299700
2025-03-13,141.7772216796875,144.16694798641166,140.79782663230102,143.39323247450463,238400
2025-03-14,143.6381072998047,143.86336401714982,141.561779260411,142.23756435683154,223600
2025-03-17,144.79376220703125,144.9504690034165,142.85456417100727,143.49116498279625,225200
2025-03-18,143.2855224609375,144.49017438690367,142.77623276642447,144.35305965504074,219900
2025-03-19,143.9514923095703,144.42161273286254,142.4726110403041,143.32468002289772,279600
2025-03-20,142.2081756591797,144.38243413158088,140.76846356409283,143.1190209381293,332800
2025-03-21,141.8360137939453,142.4628260965788,139.42669513246977,141.0329025919921,601900
2025-03-24,144.94068908691406,145.1267616063011,141.92415032610805,142.7468386396778,463800
2025-03-25,144.1767578125,146.15512513486658,142.9231183481365,145.43038233248038,325200
2025-03-26,145.49893188476562,145.63604659931275,143.28550436582418,144.02005068183723,630400
2025-03-27,146.2726593017578,146.80152606265366,144.0004555719647,145.2246994062801,312700
2025-03-28,143.9025115966797,146.90926165859608,142.7566211490686,146.2138845778836,239800
2025-03-31,145.32266235351562,146.01802456611082,143.08964252694352,143.5597480313838,372500
2025-04-01,146.02783203125,146.93866240475776,144.3432710717018,145.8123638891414,240000
2025-04-02,147.4283447265625,148.0159877703709,144.950476293581,144.950476293581,247600
2025-04-03,145.606689453125,146.9582596750277,143.4422343279696,143.7360409463089,352900
2025-04-04,137.29161071777344,144.91131905351403,137.15449598879215,142.2277708498692,531600
2025-04-07,131.87554931640625,139.19163219073434,128.15385974857273,133.5307294902565,629900
2025-04-08,130.9059600830078,136.43953673434598,128.57499483049722,134.5493112573588,473800
2025-04-09,140.78805541992188,141.44424838924863,128.6141806532637,130.43584131939255,491800
2025-04-10,137.8596649169922,140.4158870228316,134.7354067381973,137.11532993446937,309000
2025-04-11,141.140625,141.7282680233526,136.86067330008663,137.96737957378522,203000
2025-04-14,142.78602600097656,143.38345769739846,140.82723551361107,142.79582951782007,249300
2025-04-15,140.97415161132812,143.52057023933776,140.807656215774,143.0896488919898,250700
2025-04-16,142.01229858398438,142.81540979066028,139.63237551205373,141.09166473999363,307700
2025-04-17,140.8664093017578,142.75663480933545,137.8107011490633,142.40405194984112,390600
2025-04-21,139.6421661376953,141.08187824351555,138.19266546008294,140.347331860725,291600
2025-04-22,143.0112762451172,143.79479531157602,140.631338388382,141.52259151328374,217800
2025-04-23,144.9994659423828,146.2433020616364,144.18656611291064,144.82316703093355,537000
2025-04-24,148.33920288085938,148.86806971088194,142.4628317080614,144.88192409202932,424500
2025-04-25,145.98861694335938,149.8474356512307,144.52932795142166,147.74174236983214,220500
2025-04-28,146.61544799804688,147.91804531450325,145.22470870652703,146.71339348881767,235200
2025-04-29,147.20309448242188,148.84847116613122,145.939666366217,146.67421273095528,359900
2025-04-30,146.86029052734375,146.89947469973708,144.17675754933848,145.9984330116698,556200
2025-05-01,145.66183471679688,147.8721067076984,144.36514960993844,145.82883124627438,445300
2025-05-02,149.316162109375,150.29850528114721,145.18049076089244,150.2886872456017,431600
2025-05-05,148.80531311035156,150.51459532270206,148.21591630528783,148.75619296258844,267600
2025-05-06,148.25521850585938,149.355437978684,146.78170385931236,147.59705042912566,312000
2025-05-07,148.7169189453125,150.44583737765655,147.9605105733144,149.19827245283236,318400
2025-05-08,150.65213012695312,151.84077180787722,148.5695676661293,149.1098443499113,302500
2025-05-09,150.61285400390625,151.5755460622504,150.23955882257493,151.1924328459138,231600
2025-05-12,152.7740020751953,153.82510139061208,150.98613045039815,153.0392239180569,352500
2025-05-13,150.92721557617188,153.55007024184005,150.494982150033,153.55007024184005,339400
2025-05-14,149.78765869140625,150.90752912864178,148.30432613531156,150.90752912864178,350100
2025-05-15,152.2140655517578,152.7347062134107,149.65998239804614,149.65998239804614,278100
2025-05-16,154.23768615722656,154.3752135929202,151.86041763202704,152.4399964689241,278600
2025-05-19,155.288818359375,155.54422220096674,153.55006665911085,153.59918681809296,185400
2025-05-20,155.73086547851562,157.4303150085624,155.12181749431372,157.4303150085624,388100
2025-05-21,153.6875762939453,154.8663850260189,153.07852836340334,154.09034056579173,319800
2025-05-22,153.88404846191406,154.4832783830283,152.81329802579143,153.5991755437167,278900
2025-05-23,153.18658447265625,153.4223372220158,151.53624028030902,152.3810559407016,260500
2025-05-27,155.36740112304688,155.64245601461047,153.92335544765425,154.25734853178614,352800
2025-05-28,154.6208038330078,156.03538034918074,154.4832763933447,155.36739421063615,364400
2025-05-29,155.5343780517578,155.8683710937722,154.05104543149486,155.04320652313712,232100
2025-05-30,155.60313415527344,155.9764293133438,153.77597547059216,155.44597065814978,335100
2025-06-02,154.13946533203125,156.2613301068848,152.51859016122646,154.75833131600515,349600
2025-06-03,153.5009307861328,154.66010346409962,153.24552697068694,153.4223415376803,397800
2025-06-04,147.75424194335938,153.75635939881812,147.63635056847724,153.72689030243944,831900
2025-06-05,149.7975311279297,150.6325139165367,146.4182678697891,148.9035951518603,482400
2025-06-06,150.60301208496094,151.75235166609104,149.52244371290558,151.64429332994897,264700
2025-06-09,148.92323303222656,150.4753220758684,148.68746527135272,150.01363456854594,388400
2025-06-10,149.83677673339844,150.29847914298685,148.19626572056148,149.47331461964936,323500
2025-06-11,149.23756408691406,150.8780752886444,148.92322208489034,150.29849644880608,380800
2025-06-12,151.62466430664062,151.88988615274167,148.7365731786107,148.7365731786107,337200
2025-06-13,148.49098205566406,151.00577791651503,148.0685667411024,150.29848970697998,361200
2025-06-16,149.01162719726562,150.20025395390124,148.4516844355203,148.5695758002576,346200
2025-06-17,146.81117248535156,148.58921108822153,146.49683048956007,147.9998142251002,379700
2025-06-18,147.0567626953125,148.06857491409224,146.48700188455078,146.48700188455078,383200
2025-06-20,147.64617919921875,148.10788168123327,146.35931206442524,147.63634617447357,570500
2025-06-23,151.07452392578125,151.22188436993758,146.85046100186406,146.85046100186406,356500
2025-06-24,151.1531219482422,151.84077408220156,150.47530283808342,151.84077408220156,246600
2025-06-25,151.21206665039062,151.80147850793904,150.0725600428252,151.14331042765082,264700
2025-06-26,151.7523651123047,152.83294856947208,150.4163778331554,151.80148526751537,658200
2025-06-27,153.06871032714844,153.3535832332286,151.50677339306424,151.92918872409527,643100
2025-06-30,153.6679229736328,153.73669418509692,151.8800663373244,153.27499173184543,315500
2025-07-01,156.202392578125,156.97845212870033,153.20625769947551,153.66794523022978,338300
2025-07-02,157.48924255371094,157.69552619700025,155.8487164947486,156.21219361043833,293500
2025-07-03,158.19654846191406,158.51090549299013,156.99810350169926,157.76433002823686,235100
2025-07-07,158.11795043945312,159.5030428051159,157.7151861749073,158.10811741535406,313900
2025-07-08,157.22401428222656,159.70934109650693,157.02754866243734,158.05899691367227,342700
2025-07-09,156.90968322753906,157.1847381385685,155.3084739217681,157.10614887979318,252800
2025-07-10,155.5343780517578,157.52853325880866,155.5343780517578,156.37919368056006,361600
2025-07-11,155.11195373535156,155.76030371292907,153.864388917444,155.76030371292907,292000
2025-07-14,154.77796936035156,156.13360757296107,153.92333569902758,154.36538707594116,276600
2025-07-15,151.43800354003906,155.21019713887813,151.34959626569866,154.95479334988428,254200
2025-07-16,152.24351501464844,152.86239590560155,150.8387717096552,151.20223382561701,261900
2025-07-17,153.2749786376953,153.64827377805926,151.78181306560424,152.00776275022704,397700
2025-07-18,153.61883544921875,154.43418210944483,152.18460777221878,154.08053795548372,243100
2025-07-21,152.70523071289062,153.9036904847458,152.49894705753542,153.65810471165034,205900
2025-07-22,156.3595428466797,156.54619042612177,152.48910879729814,153.35357548550758,449900
2025-07-23,158.80560302734375,158.99225063096037,156.33009400189493,157.24368095923748,450500
2025-07-24,159.40647888183594,161.82977982229215,157.4067422902807,158.55930509041656,431900
2025-07-25,158.5888671875,160.65753702914088,158.3819926877325,159.63305506440543,296300
2025-07-28,156.33302307128906,159.56410142477418,155.80108366056007,158.79573614749467,308500
2025-07-29,156.4512481689453,157.21961346905596,154.8751057408573,156.6778135699502,388200
2025-07-30,154.45152282714844,156.5596048396094,152.60941806347356,156.43155396747557,580700
2025-07-31,154.79627990722656,155.0031544025075,152.86550639902828,153.456563501654,679700
2025-08-01,139.24180603027344,155.7616748420332,138.98567424542853,154.62883281758354,1012300
2025-08-04,137.05490112304688,140.98538123418317,135.03547356824112,140.98538123418317,839000
2025-08-05,138.12864685058594,138.9659752764255,135.63638251685612,137.26176707147744,540800
2025-08-06,136.47369384765625,138.6605841437307,135.49846914211423,138.21729882019278,515300
2025-08-07,138.39462280273438,139.37970798596095,136.83818640949156,137.71491162131494,564000
2025-08-08,138.65074157714844,139.93135534040795,138.48327889728324,138.59163887027924,428700
2025-08-11,137.7838592529297,139.5077583171329,137.12385398637957,139.222090228796,349500
2025-08-12,137.39967346191406,138.9856611656125,137.15340217271373,138.12864188918144,286100
2025-08-13,139.3206024169922,139.33046288965815,137.1731237449772,137.6065636684466,729900
2025-08-14,136.27667236328125,138.09908585404855,134.405016641309,138.09908585404855,875800
2025-08-15,136.65101623535156,136.8775816161289,135.81368782683418,136.29638497225332,770500
2025-08-18,135.83340454101562,137.4883555774846,135.30146511966976,136.81848979115895,529500
2025-08-19,137.50804138183594,138.4241784468644,136.20773671589527,136.20773671589527,333100
2025-08-20,139.07432556152344,139.14328874260568,137.18296372359896,137.8232781418471,519200
2025-08-21,138.54238891601562,139.78359091939785,138.14836082862038,138.53254347475354,270400
2025-08-22,139.3206024169922,141.1922734473183,139.0841915723422,139.15313972496236,356500
2025-08-25,137.47848510742188,139.4979127296023,136.88744301904194,138.8674588166062,245800
2025-08-26,137.6262664794922,138.0695518344244,135.95160953453586,136.99581252262666,442900
2025-08-27,137.3602752685547,138.47342629437426,136.95638675089546,137.01548945470773,729100
2025-08-28,136.81849670410156,138.07940468549748,135.35071419599137,138.07940468549748,320800
2025-08-29,137.19281005859375,137.7838521169858,136.2865335440943,137.09429553325865,370700
2025-09-02,134.37547302246094,136.46384879424832,134.13904716800675,135.37040364310914,310600
2025-09-03,133.20323181152344,134.1489052560839,132.4348665011149,134.0504057475134,382300
2025-09-04,136.39491271972656,136.41460360260194,133.02590787820503,134.31638220454172,401800
2025-09-05,136.55250549316406,138.7197049562119,135.5772807659998,136.94654859153968,440800
2025-09-08,136.23728942871094,137.91193130257207,135.62652636886406,136.52295752982062,616100
2025-09-09,135.00592041015625,137.39967006705987,133.08500740809663,136.19786500295976,637100
2025-09-10,134.21786499023438,135.40982475360394,132.83875165602893,134.09965957050477,685100
2025-09-11,135.05519104003906,136.2175843964125,133.84352538471833,134.71040519706986,477500
2025-09-12,133.2130584716797,135.00592063066784,133.20321303157323,134.58232620679007,261300
2025-09-15,132.8387451171875,134.13904976383114,132.62202517087903,133.9420357302436,298000
2025-09-16,133.193359375,133.4002188229186,132.0999143423857,132.77961041675212,474800
2025-09-17,132.6417236328125,135.02564317844585,132.18859283278562,133.4002434882413,377400
2025-09-18,132.49395751953125,133.48888814617573,132.07037810452255,132.88798558145595,254800
2025-09-19,132.43482971191406,133.08498941894612,131.35123020019395,132.65154961425807,877200
2025-09-22,130.74050903320312,132.92739938115005,130.691251766929,132.11962230163485,402100
2025-09-23,130.0509490966797,131.95215627068484,130.00169183165633,131.0261738005905,319700
2025-09-24,129.5386962890625,131.32169799268698,129.38107905871175,130.0312388605038,353300
2025-09-25,128.8688507080078,130.54349251095573,128.32705085173455,129.53870141670419,388700
2025-09-26,130.31690979003906,130.4548211118124,129.00675974879576,129.37123644965243,274400
2025-09-29,130.29722595214844,130.7010994676822,129.4007947965638,130.42527680922657,540600
2025-09-30,131.66648864746094,131.76498814664785,129.74557555443596,129.74557555443596,310400
2025-10-01,132.1393280029297,132.35604794922318,130.33662028487404,131.34141139667054,310100
2025-10-02,131.19363403320312,132.38559368725765,130.97692912730892,131.66648573117217,398500
2025-10-03,131.23304748535156,131.58767874762543,130.45482178395852,130.49423360821496,402000
2025-10-06,129.9130401611328,131.21334480064905,129.45004891757588,130.90797079558112,447100
2025-10-07,128.64227294921875,130.5336347337186,127.8739076939909,130.13960666531722,438800
2025-10-08,129.64707946777344,130.0411075829899,128.31720827430195,129.2234849642671,361300
2025-10-09,128.6619873046875,130.8587232410274,128.2580987377885,129.73572663806536,554200
2025-10-10,128.97718811035156,130.04108184834632,127.95270619480443,128.98704858156654,426000
2025-10-13,128.2777862548828,130.37602238234368,128.2186835523413,129.03630601031335,311400
2025-10-14,127.86406707763672,129.10526906801942,127.11539267573563,128.10047791511465,337400
2025-10-15,126.18942260742188,128.44526114593418,125.95299674355027,127.86406447402499,438300
2025-10-16,127.23359680175781,127.56852213268624,125.94313019312601,126.52433431790585,352700
2025-10-17,127.41091918945312,128.15959357922404,126.92823704995098,127.23361106421747,339700
2025-10-20,128.0610809326172,128.14973499654218,126.11061637022783,127.67689829106764,240500
2025-10-21,128.62257385253906,129.80467301345007,127.19418837559832,128.66197064438,311600
2025-10-22,128.12017822265625,130.13960588126338,128.04136960320932,128.70137488096933,357500
2025-10-23,129.29678344726562,130.0482160538345,128.19928781482736,128.27838836608,378600
2025-10-24,127.42807006835938,129.41542040316887,127.09188897025071,129.27699821696652,489300
2025-10-27,127.32919311523438,128.43657062662018,127.00290900843953,127.68513804202082,521700
2025-10-28,126.6568603515625,127.65547648827675,126.03395296154486,127.29953156353623,413500
2025-10-29,122.9095458984375,126.06361040803851,122.02957306455488,125.84608767724626,651100
2025-10-30,122.95899200439453,124.10591981246533,121.65386309537952,122.6425973459498,702600
2025-10-31,114.70305633544922,116.76950718685458,102.0670345015107,113.99116650647636,2758200
2025-11-03,111.84561920166016,114.78215353846566,107.07003104374891,114.78215353846566,1661000
2025-11-04,112.89366912841797,114.69316503673943,111.26225622049985,113.0716415827989,1029100
2025-11-05,114.26801300048828,114.73271928879292,111.49955417930168,113.04198468525121,896900
2025-11-06,114.84147644042969,115.64234871180304,112.517952627641,113.72420198995826,880300
2025-11-07,114.91068267822266,115.60279355716192,113.39792065465342,114.9205721317626,697200
2025-11-10,115.06887817382812,115.45448389057002,112.7156936019875,114.68327245708623,514000
2025-11-11,116.93759155273438,118.16362740289492,115.64235215314066,115.64235215314066,484800
2025-11-12,116.8288345336914,118.32181771681981,116.58165098825971,117.0067994446968,547500
2025-11-13,118.8458480834961,120.50692184487997,116.96725913412712,116.96725913412712,679400
2025-11-14,117.27377319335938,119.33034229985671,117.05625044547779,118.4207010320388,521200
2025-11-17,117.99553680419922,118.1438484441411,116.24548057452645,117.15511423578639,820200
2025-11-18,117.96587371826172,118.75686408712447,116.72995598156568,118.31193671929118,817400
2025-11-19,116.6706314086914,118.16362210922091,116.38389759577892,118.16362210922091,598900
2025-11-20,117.24410247802734,118.26249749040201,116.04773500908134,116.67063483535937,507400
2025-11-21,120.15098571777344,120.86287560236238,116.79917713070375,116.79917713070375,509100
2025-11-24,120.10154724121094,121.02107037008182,119.08315219875638,119.48852930748254,740000
2025-11-25,122.04935455322266,122.68214385066395,121.0309595133857,121.0309595133857,543600
2025-11-26,122.41517639160156,123.11717675407199,121.63407548431789,121.63407548431789,538000
2025-11-28,123.34458923339844,124.65960750619288,122.23720423365944,122.23720423365944,315700
2025-12-01,121.89115142822266,123.55222519221778,121.64396787729149,123.47312464549341,536800
2025-12-02,120.2300796508789,122.46462110038372,119.4390968008952,122.37563109798752,325400
2025-12-03,120.68489074707031,122.86011045381893,120.04221956935034,120.08176229804191,543100
2025-12-04,120.64534759521484,122.6821452414219,120.55636513524256,120.82332005860296,708000
2025-12-05,120.53659057617188,122.11856379579517,119.26112254625717,120.61568357957054,537000
2025-12-08,118.71731567382812,120.72444490270962,117.95599365521366,119.55773823925648,496600
2025-12-09,114.41632080078125,118.49979025868578,114.06037589162156,118.25260671307173,640300
2025-12-10,115.84998321533203,116.47289058274676,113.83296456280685,114.86124902547321,734700
2025-12-11,116.68052673339844,117.33308739219939,115.84010415999195,116.6310870053096,389700
2025-12-12,120.10154724121094,120.26963024864754,116.32458281214376,117.18477675810965,656400
2025-12-15,120.95185852050781,121.08039125301917,119.12270172858626,120.11143594513233,588600
2025-12-16,121.44622802734375,122.45473362902362,118.17351257639858,121.28802692871906,644800
2025-12-17,122.23721313476562,123.19628656831932,118.72721105831677,120.73434038745187,567300
2025-12-18,121.23859405517578,122.72169540087228,120.65523693661119,122.2767604710972,457100
2025-12-19,120.02244567871094,122.92932668285609,119.89391294648267,121.95047437935206,1300400
2025-12-22,121.35723114013672,122.30641504771651,119.70604686997531,120.02244150583525,527800
2025-12-23,120.81343078613281,121.6439638690421,119.95322934159698,121.48577032424926,311700
2025-12-24,121.36712646484375,121.7823930301015,120.38828169146663,121.1496037277725,198000
2025-12-26,121.86149597167969,122.08890816765887,120.34873378036154,120.99141254975284,306000
2025-12-29,121.82193756103516,122.90954365167185,120.9419647432383,121.90103810595791,400200
2025-12-30,121.35723114013672,122.89966159046664,121.0408365042768,121.41656032047763,289800
2025-12-31,120.58602142333984,121.94058998507745,119.98289296138277,120.15097596397585,314300
2026-01-02,121.15950012207031,121.61431698770537,119.41932566926891,120.36850967713042,295100
2026-01-05,121.61430358886719,123.17650539661395,120.3882753233874,120.3882753233874,435700
2026-01-06,119.20179748535156,121.4659997987374,118.75687009500949,120.84309994356978,777200
2026-01-07,119.08314514160156,120.57612829815741,116.28502564669009,119.31054977502313,478500
2026-01-08,121.06062316894531,121.98014631699301,118.17351344536358,118.56900865138992,330000
2026-01-09,122.4547348022461,123.5621198728979,120.09166055886544,120.70467850674399,429100
2026-01-12,123.72030639648438,123.88839694168902,121.59453392415777,122.60303947816963,477300
2026-01-13,122.10867309570312,124.02681984811237,121.15948917361368,123.64121411549613,351900
2026-01-14,125.42092895507812,125.7274416797615,122.71179941985773,122.71179941985773,611700
2026-01-15,123.7005386352539,125.78676843900955,123.11718152395939,125.70766789113175,381000
2026-01-16,123.30503845214844,123.78951608727894,121.85159800331378,122.60303809087354,363400
2026-01-20,122.42506408691406,124.11579860493296,122.0493478196131,123.49289879622381,275100
2026-01-21,123.60166931152344,124.20479780070094,122.50417370291805,122.90955081825824,421000
2026-01-22,123.0677490234375,124.98589581561515,122.66236437418617,123.64121667891544,369700
2026-01-23,124.58051300048828,124.85735737798285,122.4745118058816,122.93921055756546,429500
2026-01-26,124.92656707763672,125.55935637440064,123.69064930373163,124.99577817123766,315400
2026-01-27,123.33470153808594,124.87713201390274,122.77112334791536,123.54233481410213,303100
2026-01-28,122.3064193725586,123.6609879626866,121.8614919932062,122.80078648003611,347800
2026-01-29,122.4547348022461,123.86862507511535,121.20892754069328,122.88978028418853,386000
2026-01-30,123.5423355102539,123.60166469190948,121.27814082612888,121.52532437660433,512700
2026-02-02,123.42369079589844,124.49152553193812,122.80078342815366,122.80078342815366,489100
2026-02-03,123.22593688964844,126.48876266797768,122.29653189940339,122.51405462375108,658700
2026-02-04,128.26812744140625,129.44927260782487,123.77184577350829,124.77433039015442,589400
2026-02-05,123.05722045898438,128.1192596554473,121.05225107397254,126.71975064755804,2144200
2026-02-06,133.31031799316406,134.97782150042084,126.58078326238557,126.58078326238557,1045700
2026-02-09,137.43936157226562,138.531180271334,132.2582131007177,132.5857587104382,1043400
2026-02-10,139.126708984375,139.88104683101494,136.78427392403074,136.78427392403074,622100
2026-02-11,138.9678955078125,139.50388475135443,137.56840169460276,137.99519392074043,584300
2026-02-12,139.46417236328125,140.94308767923593,138.3525134196047,139.11678651599092,572700
2026-02-13,141.51876831054688,141.86615414747763,139.36492159879577,139.46416820425452,471900
2026-02-17,140.59568786621094,142.55102629654255,138.2234773285034,138.2234773285034,614700
2026-02-18,140.66517639160156,142.04482998774162,139.791721402891,140.41703714664675,582000
2026-02-19,142.09445190429688,142.25326464590432,139.98030082414553,140.5956812663536,525500
2026-02-20,143.97039794921875,144.0597244456509,140.94309602664507,142.0547550361601,664500
2026-02-23,144.63539123535156,145.15152505885825,142.06467252487357,142.42199361111417,513500
2026-02-24,143.06715393066406,145.8165408414096,142.77931908758302,144.98279666295065,429800
2026-02-25,141.61801147460938,142.5907281428982,139.3847584456305,141.3500320156877,348900
2026-02-26,140.73464965820312,142.8488009040386,139.9505362960431,142.45178416412276,331300
2026-02-27,142.64036560058594,142.9381205686862,139.9505296087492,140.47658357934912,344600
2026-03-02,141.60809326171875,142.2830398395081,140.56590547180699,141.93563886113196,335000
2026-03-03,138.71974182128906,140.26814325067423,135.90088396317486,139.5931967078321,347300
2026-03-04,136.02000427246094,138.47162126788456,134.9976717766612,138.302888395737,389000
2026-03-05,133.72720336914062,135.32522078079646,133.40959299752922,134.98775502807862,452300
2026-03-06,131.096923828125,133.0026313554941,130.02496050425168,133.0026313554941,398500
2026-03-09,132.75448608398438,132.98276993154295,126.58078092139597,129.9951790988654,545700
2026-03-10,131.14654541015625,133.1316591702968,130.42196798314936,132.3574660154593,503100
2026-03-11,131.03738403320312,132.28800044532838,129.0721101988683,130.8190202738326,563800
2026-03-12,127.90088653564453,131.8016279987067,127.68252279954663,130.29295237048808,620600
2026-03-13,127.69245147705078,129.1812869710477,126.10436937058473,129.1812869710477,660600
2026-03-16,128.08949279785156,130.4319280867629,125.06219070801843,128.51628506786432,370700
2026-03-17,128.5361328125,130.04482370856644,127.28551643200822,129.00263581888095,276700
2026-03-18,123.29542541503906,125.63786042046195,120.51626292882625,123.45423058912087,910500
2026-03-19,123.04728698730469,123.8909588849741,120.54603921873606,122.0944332187195,518500
2026-03-20,120.15894317626953,123.33512999241371,119.41452545613383,123.33512999241371,1481500
2026-03-23,123.21602630615234,125.39964869362488,122.0745842329971,122.59071811756196,455200
2026-03-24,123.22594451904297,124.28798013248851,121.95547285876513,122.2433152775169,405000
2026-03-25,124.88351440429688,125.62793211237509,122.78921864642815,124.50634549167631,337200
2026-03-26,123.76193237304688,126.3922023143744,123.19617519683187,124.28798636131239,442100
2026-03-27,121.08202362060547,123.28550132328671,120.85373975633635,123.01751427118627,381400
2026-03-30,122.44182586669922,123.01751071469691,120.19864504103799,121.64777727824665,562000
2026-03-31,125.08202362060547,126.01502957768723,122.67010992701152,123.46415851677581,557800
2026-04-01,125.80659484863281,127.68252689973865,125.38972274230011,126.39219982096562,380200
2026-04-02,125.07210540771484,126.14406117582702,123.32520302720033,124.2085781211438,297500
2026-04-06,125.07210540771484,125.25076596450165,123.66266876079281,123.66266876079281,461100
2026-04-07,124.67507934570312,126.22346576757812,123.8711106378232,124.38723692091199,376900
2026-04-08,131.03738403320312,131.68254004802253,127.19617800807119,130.4021481364575,645200
2026-04-09,130.42198181152344,131.45424955756675,126.39220287440348,130.24332882387228,424100
2026-04-10,130.521240234375,131.71230555728022,129.87608426848973,131.2656579543429,407400
2026-04-13,131.126708984375,131.43439923843442,126.63042687940094,129.82646170678544,396300
2026-04-14,130.03488159179688,131.73216065356567,129.99518597737963,130.2532453341348,315500
2026-04-15,128.68499755859375,130.0547309433663,127.64282491736233,129.83636721114993,407100
2026-04-16,127.33512878417969,129.3599535123959,125.9554827551545,125.9554827551545,393800
2026-04-17,129.65773010253906,131.31529853067389,128.68501330537714,128.68501330537714,401100
2026-04-20,129.945556640625,131.00759986778516,128.69494031122633,129.59817078840075,403600
2026-04-21,125.7470474243164,131.2656618627598,125.7470474243164,129.727195499975,310200
2026-04-22,123.62297058105469,126.33264680138942,122.04480110008107,126.33264680138942,458900
2026-04-23,124.01007080078125,126.49146323670142,123.51379231359721,124.44679072012924,440800
2026-04-24,123.15646362304688,123.48400922187079,121.6577005635927,123.48400922187079,440900
2026-04-27,123.80162811279297,125.2904634945878,122.6204829533344,123.11676141393268,359700
2026-04-28,124.8338851928711,125.70734016180099,122.79914797388655,125.18128618602746,354300
2026-04-29,121.9852523803711,124.96292327213307,121.87607050853111,124.20857785922294,448400
2026-04-30,122.75944519042969,125.14158341040145,120.97283963229869,122.51130595027864,764800
2026-05-01,118.13412475585938,127.5237125861033,117.0224658192811,126.26316859263083,989400
2026-05-04,119.7023696899414,120.84381172589876,116.58574139374336,117.79666211505766,739600
2026-05-05,121.1217269897461,122.78922301811379,119.92073395333378,120.00014032911528,628600
2026-05-06,122.19791412353516,125.94466800462597,121.24129756714204,122.74597925597982,917000
2026-05-07,124.66918182373047,126.02439054042098,122.13813047351475,122.5068295340525,749700
2026-05-08,120.56369018554688,125.4165335007669,119.9658058031768,124.78875603965518,794900
2026-05-11,119.53732299804688,120.79288554794945,119.0191585502766,120.79288554794945,706100
2026-05-12,117.6340560913086,120.43415267647454,116.72725880994862,120.02559365453983,696600
2026-05-13,117.46465301513672,118.33159035082205,116.01976505817387,117.58423293808002,679500
2026-05-14,117.57426452636719,119.73662439056804,116.62761485678391,118.31166263789773,531000
2026-05-15,114.26596069335938,117.5045093824967,114.06666843041747,117.49455009110837,447000
2026-05-18,115.40194702148438,116.90662874327987,114.76420263658683,115.19268785792543,433100
2026-05-19,113.20970153808594,115.63113986049136,112.05378509001822,115.48166685737739,575800
2026-05-20,114.85388946533203,115.04321484042606,111.15696237122292,113.66807993613209,562600
2026-05-21,115.1030044555664,116.08951407739181,112.37265332877841,116.08951407739181,345600
2026-05-22,115.82047271728516,116.38846404651633,114.30582410432685,115.39198749681162,405800
2026-05-26,115.96993255615234,116.55785764558959,114.96349676302546,115.79056648170686,344500
2026-05-27,114.89374542236328,117.69384200162881,114.32575411191587,116.52796630163347,464000
2026-05-28,115.58131408691406,115.93007936247552,112.95061657623215,114.40547144179769,510100
2026-05-29,115.44180297851562,116.84683851674723,113.34920381323532,114.65458561775299,559600
2026-06-01,111.9840316772461,114.72434218302038,111.63526640610465,114.28589767180515,706800
2026-06-02,111.78473663330078,112.65167394505289,110.84804626905223,111.5555436879482,452400
2026-06-03,112.13349914550781,113.61824699938008,111.29646253608045,111.29646253608045,372600
2026-06-04,112.15343475341797,115.35212345281656,111.14699134502068,114.54497230632394,337600
2026-06-05,112.96057891845703,114.18624078068318,111.58544405772433,112.69152600064275,466300
2026-06-08,111.54558563232422,112.24311616501637,110.55906839000053,111.86445781905672,422200
2026-06-09,115.49163055419922,115.74074968498803,112.27300803930216,112.88085932662787,444400
2026-06-10,114.26596069335938,116.13934141606836,112.97054577921195,115.74074928767203,496800
2026-06-11,116.16923522949219,116.59772043978674,113.85740999319688,114.70441351982215,395200
2026-06-12,117.30522155761719,118.05257897569324,115.96993901734801,117.48458764205596,342600
2026-06-15,117.66394805908203,120.31457162088154,117.14577601676713,118.28175862932584,576100
2026-06-16,120.22489166259766,120.62348378448296,113.36912845320511,118.08246565966249,474700
2026-06-17,119.56721496582031,121.918900150595,119.03908362900873,121.19147655168894,680500
2026-06-18,119.89605712890625,122.1182031608104,118.69032142639777,120.03556323646836,750600
2026-06-22,119.57718658447266,120.58363003359555,118.46113010611298,119.13873446752551,468400
2026-06-23,120.1850357055664,122.14809569936509,118.6604278207416,119.93591657137902,514100
2026-06-24,123.84210205078125,124.60939323702425,121.34094382937874,121.55021059109053,404900
2026-06-25,125.98452758789062,127.68850153642342,124.45991971828299,125.28699706013307,363500
2026-06-26,125.53611755371094,126.67210019838983,124.3204149614199,125.49625757990486,727400
2026-06-29,124.84854888916016,125.60587320209562,123.48337326752176,125.16742108368359,446600
2026-06-30,124.75885772705078,125.86494727656601,123.5033027809896,124.16097333332938,329300
2026-07-01,124.80868530273438,126.39307933521575,123.66273577346423,124.67914609082169,405600
2026-07-02,126.5325927734375,127.77818082996899,124.96812492977865,125.82508774888942,468400
2026-07-06,125.56600952148438,126.6023460237271,123.74245564919634,125.98452783897301,431400
2026-07-07,127.2400894165039,128.26645901687073,125.71548155556971,126.18381913439254,392700
2026-07-08,123.77234649658203,126.26353777363065,122.60647080352626,126.00445175211411,537700
2026-07-09,124.0114974975586,125.03787467960888,123.34386006655016,124.02146439127118,302100
2026-07-10,125.08769989013672,126.53259544666133,123.93179104742975,124.55956853594634,385200
2026-07-13,124.449951171875,126.72191640641843,123.96167980892794,125.64571994715708,391600
2026-07-14,127.82801055908203,128.95403392567474,127.5091383673285,127.96751666781715,739900
2026-07-15,128.65509033203125,130.3092450844948,127.99741214779503,129.25298235497795,466800
2026-07-16,134.27520751953125,134.6040465870392,129.56187796196684,129.56187796196684,579300
2026-07-17,132.1427459716797,136.16850424088722,130.24944675099272,135.351401437915,530800
2026-07-20,129.4522705078125,131.9135687694055,129.2928306127641,131.9135687694055,422900
2026-07-21,128.45579528808594,130.59821378154385,127.46927803301472,130.07008242817932,328800
2026-07-22,128.71487426757812,130.02025611657908,128.02730301458666,129.35261865201468,309900
2026-07-23,128.54547119140625,129.36258923692642,127.71839385448645,128.39600579528673,382800
2026-07-24,131.8936309814453,132.26232242316664,129.13338680160044,129.13338680160044,335900
2026-07-27,132.9000701904297,133.60757521827134,132.19258036761323,132.72071171310446,411200
2026-07-28,137.32443237304688,137.54365843276426,134.3549364800917,134.9030016293852,593100
2026-07-29,135.75,136.11870667337666,134.0759266469227,135.52081464440568,580000
2026-07-30,133.8699951171875,136.39999389648438,133.11000061035156,136.39999389648438,627000
2026-07-31,133.9600067138672,139.57000732421875,132.1699981689453,137.4600067138672,886500
2026-08-03,136.77000427246094,138.4600067138672,134.52999877929688,137.22999572753906,642500
2026-08-04,136.17999267578125,137.8699951171875,135.33999633789062,137.8699951171875,511900
2026-08-05,136.75,136.8800048828125,134.8699951171875,136.8699951171875,454800
2026-08-06,135.77999877929688,138.69000244140625,134.6699981689453,138.6199951171875,545000
2026-08-07,135.4199981689453,137.67999267578125,134.7100067138672,135.05999755859375,686300
2026-08-10,133.67999267578125,134.52000427246094,132.92999267578125,134.38999938964844,446700
2026-08-11,134.75,135.0500030517578,132.8000030517578,132.8000030517578,343700
2026-08-12,133.14999389648438,134.47000122070312,132.27000427246094,133.50999450683594,315100
2026-08-13,132.57000732421875,134.44000244140625,132.08999633789062,134.44000244140625,490800
2026-08-14,132.10000610351562,132.75,129.55999755859375,132.08999633789062,381600
2026-08-17,131.74000549316406,133.16000366210938,130.22000122070312,133.16000366210938,374500
2026-08-18,131.72999572753906,133.47000122070312,131.22000122070312,132.75,500100
2026-08-19,132.92999267578125,134.3800048828125,132.2899932861328,133.0500030517578,390400
2026-08-20,132.9600067138672,133.8300018310547,130.89999389648438,131.4499969482422,420900
2026-08-21,134.8000030517578,135.1300048828125,133.10000610351562,134.0399932861328,400500
2026-08-24,134.75,136.33999633789062,134.38999938964844,135.36000061035156,282300
2026-08-25,134.72000122070312,135.58999633789062,133.22000122070312,135.58999633789062,280900
2026-08-26,135.24000549316406,136.63999938964844,134.44000244140625,135.0,281400
2026-08-27,132.86000061035156,134.69000244140625,132.25999450683594,133.77999877929688,295700
2026-08-28,132.99000549316406,133.66000366210938,132.0399932861328,133.5500030517578,325400
2026-08-31,131.6199951171875,132.44000244140625,130.8300018310547,132.2100067138672,389200
2026-09-01,130.9199981689453,132.07000732421875,130.77999877929688,131.64999389648438,418200
2026-09-02,130.3300018310547,132.25999450683594,129.69000244140625,131.27000427246094,472500
2026-09-03,128.30999755859375,130.64999389648438,126.98999786376953,130.64999389648438,340000
2026-09-04,127.41000366210938,128.47000122070312,126.52999877929688,127.52999877929688,324000
